Time (s),ECG (mV)
0.0,0.0
0.0040032025620496394,0.0016723534548784076
0.008006405124099279,0.0033428355136594016
0.012009607686148917,0.005009576874374259
0.016012810248198558,0.006670712420968271
0.020016012810248198,0.008324383310401948
0.024019215372297835,0.009968739052732583
0.028022417934347475,0.01160193958184857
0.032025620496397116,0.01322215731453921
0.036028823058446756,0.014827579195595948
0.040032025620496396,0.01641640872665646
0.044035228182546036,0.017986867976521326
0.04803843074459567,0.019537199570693685
0.05204163330664531,0.021065668657915523
0.05604483586869495,0.022570564851500052
0.06004803843074459,0.024050204143287693
0.06405124099279423,0.025502930788084074
0.06805444355484387,0.02692711915647111
0.07205764611689351,0.028321175553918006
0.07606084867894315,0.029683540004156506
0.08006405124099279,0.031012687994824706
0.08406725380304243,0.032307132183426096
0.08807045636509207,0.0335654240616948
0.09207365892714171,0.03478615557650452
0.09607686148919134,0.03596796070550745
0.10008006405124098,0.037109516985739874
0.10408326661329062,0.03820954699348398
0.10808646917534026,0.039266819773729936
0.1120896717373899,0.04028015221763845
0.11609287429943954,0.04124841038646267
0.12009607686148918,0.04217051078044773
0.12409927942353882,0.043045421551288064
0.12810248198558846,0.043872163656785756
0.1321056845476381,0.04464981195641788
0.13610888710968774,0.04537749624658671
0.14011208967173738,0.04605440223439452
0.14411529223378702,0.04667977244885324
0.14811849479583666,0.04725290708850918
0.1521216973578863,0.047773164804534564
0.15612489991993594,0.048239963418409304
0.16012810248198558,0.048652780573390106
0.16413130504403523,0.04901115431903791
0.16813450760608487,0.04931468362814937
0.1721377101681345,0.04956302884551412
0.17614091273018415,0.04975591206799557
0.1801441152922338,0.04989311745550996
0.18414731785428343,0.04997449147255556
0.18815052041633307,0.049999943060021916
0.19215372297838268,0.04996944373708684
0.19615692554043232,0.04988302763308686
0.20016012810248196,0.049740791449325944
0.2041633306645316,0.049542894350864855
0.20816653322658124,0.04928955778841224
0.21216973578863088,0.0489810652505171
0.21617293835068052,0.04861776194633948
0.22017614091273016,0.04820005441935479
0.2241793434747798,0.04772841009242363
0.22818254603682944,0.04720335674473661
0.23218574859887908,0.04662548192121905
0.23618895116092872,0.045995432275056855
0.24019215372297836,0.04531391284407894
0.244195356285028,0.044581686261806176
0.24819855884707764,0.04379957190404963
0.2522017614091273,0.042968444972013076
0.2562049639711769,0.0420892355129258
0.26020816653322654,0.04116292737930158
0.2642113690952762,0.04019055712798861
0.2682145716573258,0.039173212860242196
0.2722177742193755,0.03811203300411822
0.2762209767814251,0.037008205040549996
0.28022417934347477,0.03586296417453393
0.2842273819055244,0.0346775919529111
0.28823058446757405,0.03345341483029133
0.29223378702962366,0.03219180268472475
0.2962369895916733,0.03089416728478139
0.30024019215372294,0.029561960709754864
0.3042433947157726,0.028196673724757093
0.3082465972778222,0.02679983411252337
0.3122497998398719,0.02537300496379348
0.3162530024019215,0.0239177829281829
0.32025620496397117,0.022435796427500623
0.3242594075260208,0.020928703833513564
0.32826261008807045,0.019398191612196056
0.33226581265012006,0.017845972436541815
0.33626901521216973,0.01627378327004926
0.34027221777421934,0.014683383423025706
0.344275420336269,0.013076552583884689
0.3482786228983186,0.011455088827640134
0.3522818254603683,0.009820806603825153
0.3562850280224179,0.008175534706087943
0.3602882305844676,0.0065211142257358265
0.3642914331465172,0.004859396491518385
0.36829463570856685,0.0031922409979543843
0.37229783827061647,0.0015215133245212583
0.37630104083266613,-0.00015091695196471126
0.38030424339471575,-0.0018231783494411903
0.38430744595676536,-0.0034933995748248135
0.388310648518815,-0.005159711618024534
0.39231385108086464,-0.006820249843400241
0.3963170536429143,-0.008473156076326609
0.4003202562049639,-0.010116580682526403
0.4043234587670136,-0.011748684637847522
0.4083266613290632,-0.01336764158616667
0.41232986389111287,-0.014971639883117588
0.4163330664531625,-0.016558884623356297
0.42033626901521215,-0.01812759964909521
0.42433947157726176,-0.019676029537658193
0.42834267413931143,-0.021202441565832914
0.43234587670136104,-0.02270512764882168
0.4363490792634107,-0.024182406251621755
0.4403522818254603,-0.025632624270695733
0.44435548438751,-0.027054158883826604
0.4483586869495596,-0.028445419366087372
0.45236188951160927,-0.02980484886989339
0.4563650920736589,-0.03113092616714492
0.46036829463570855,-0.03242216735151129
0.46437149719775817,-0.03367712749895071
0.46837469975980783,-0.03489440228460863
0.47237790232185745,-0.03607262955428447
0.4763811048839071,-0.03721049084870884
0.4803843074459567,-0.038306712878925
0.4843875100080064,-0.039360068951124205
0.488390712570056,-0.040369380339339705
0.4923939151321057,-0.04133351760446441
0.4963971176941553,-0.042251401858114886
0.500400320256205,-0.04312200596992878
0.5044035228182546,-0.04394435571694356
0.5084067253803042,-0.04471753087377092
0.5124099279423538,-0.045440666242347175
0.5164131305044035,-0.04611295262010648
0.5204163330664531,-0.04673363770549434
0.5244195356285027,-0.04730202693980785
0.5284227381905524,-0.04781748428442021
0.5324259407526021,-0.04827943293252049
0.5364291433146516,-0.048687355954571576
0.5404323458767013,-0.04904079687676452
0.544435548438751,-0.04933936019182152
0.5484387510008006,-0.0495827118015763
0.5524419535628502,-0.04977057939083648
0.5564451561248999,-0.04990275273210957
0.5604483586869495,-0.04997908392085165
0.5644515612489992,-0.049999487540975364
0.5684547638110488,-0.04996394076043234
0.5724579663730984,-0.0498724833567625
0.5764611689351481,-0.04972521767258236
0.5804643714971978,-0.049522308501061624
0.5844675740592473,-0.04926398290151637
0.588470776621297,-0.04895052994532527
0.5924739791833467,-0.04858230039245311
0.5964771817453963,-0.04815970629894354
0.6004803843074459,-0.047683220555820346
0.6044835868694955,-0.04715337635991312
0.6084867894315452,-0.04657076661719973
0.6124899919935949,-0.04593604327933286
0.6164931945556444,-0.045249916614093555
0.6204963971176941,-0.04451315441058753
0.6244995996797438,-0.04372658112007441
0.6285028022417934,-0.04289107693339059
0.632506004803843,-0.042007576795998564
0.6365092073658927,-0.041077069361764744
0.6405124099279423,-0.0401005958866365
0.6445156124899919,-0.039079249063456604
0.6485188150520416,-0.03801417179921836
0.6525220176140912,-0.036906555936130674
0.6565252201761409,-0.035757640917923376
0.6605284227381905,-0.034568712402885414
0.6645316253002401,-0.03334110082518825
0.6685348278622898,-0.0320761799061041
0.6725380304243395,-0.030775365116785042
0.676541232986389,-0.02944011209432339
0.6805444355484387,-0.028071915012865017
0.6845476381104884,-0.02667230491159991
0.688550840672538,-0.02524284798149903
0.6925540432345876,-0.023785143812716472
0.6965572457966372,-0.02230082360461652
0.7005604483586869,-0.02079154834043011
0.7045636509207366,-0.019259006928582206
0.7085668534827861,-0.01770491431277016
0.7125700560448358,-0.016131009552908467
0.7165732586068855,-0.014539053879086803
0.7205764611689351,-0.012930828720719201
0.7245796637309847,-0.011308133713090038
0.7285828662930344,-0.00967278468352662
0.732586068855084,-0.008026611619453625
0.7365892714171337,-0.006371456620601061
0.7405924739791833,-0.004709171837658983
0.7445956765412329,-0.0030416173996847453
0.7485988791032826,-0.0013706593325823076
0.7526020816653323,0.00030183252901693543
0.7566052842273818,0.0019739866341357518
0.7606084867894315,0.003643931809753124
0.7646116893514812,0.005309799354682919
0.7686148919135307,0.006969725130687359
0.7726180944755804,0.00862185164848381
0.77662129703763,0.010264330146311564
0.7806244995996797,0.011895322658732096
0.7846277021617293,0.013513004073348413
0.788630904723779,0.015115564173141416
0.7926341072858286,0.01670120966213765
0.7966373098478783,0.018268166172142882
0.8006405124099278,1.2198146802482943
0.8046437149719775,-0.47866097868878904
0.8086469175340272,0.8228394835935459
0.8126501200960768,0.024314388048772156
0.8166533226581264,0.025762084230070106
0.8206565252201761,0.027180952137208197
0.8246597277822257,0.02856940402935545
0.8286629303442754,0.029925886201794247
0.832666132906325,0.03124888072454603
0.8366693354683746,0.03253690714096493
0.8406725380304243,0.033788524124397055
0.844675740592474,0.035002331091053523
0.8486789431545235,0.03617696976729081
0.8526821457165732,0.03731112570954546
0.8566853482786229,0.03840352977522207
0.8606885508406725,0.03945295954288849
0.8646917534027221,0.04045824068018933
0.8686949559647718,0.04141824825794671
0.8726981585268214,0.04233190800897789
0.8767013610888711,0.04319819753022124
0.8807045636509206,0.044016147426825046
0.8847077662129703,0.0447848423969195
0.88871096877502,0.045503422255857004
0.8927141713370697,0.046171082898775785
0.8967173738991192,0.04678707720040881
0.9007205764611689,0.04735071585113153
0.9047237790232185,0.04786136812831277
0.9087269815852681,0.04831846260210562
0.9127301841473178,0.048721487774888654
0.9167333867093674,0.04906999265364164
0.9207365892714171,0.04936358725461554
0.9247397918334667,0.04960194303973195
0.9287429943955163,0.0497847932842236
0.932746196957566,0.04991193337510455
0.9367493995196157,0.04998322104013611
0.9407526020816652,0.049998576507032225
0.9447558046437149,0.049957982592726324
0.9487590072057646,0.04986148472259935
0.9527622097678142,0.04970919087964799
0.9567654123298638,0.04950127148364958
0.9607686148919135,0.049237959200458974
0.9647718174539631,0.048919548681651
0.9687750200160128,0.04854639623479961
0.9727782225780623,0.04811891942476274
0.976781425140112,0.04763759660641907
0.9807846277021617,0.04710296638937961
0.9847878302642114,0.046515627035273094
0.9887910328262609,0.04587623578827959
0.9927942353883106,0.045185508139661254
0.9967974379503602,0.04444421702711394
1.00080064051241,0.043653191969834734
1.0048038430744595,0.04281331814027375
1.0088070456365092,0.04192553537360887
1.0128102481985588,0.040990837116052316
1.0168134507606084,0.04001026931316433
1.0208166533226581,0.03898492923942007
1.0248198558847077,0.03791596427033822
1.0288230584467573,0.03680457059854502
1.032826261008807,0.03565199189521188
1.0368294635708566,0.03445951791836282
1.0408326661329061,0.03322848306961011
1.044835868694956,0.03196026490093291
1.0488390712570055,0.030656282573169914
1.0528422738190553,0.02931799526795057
1.0568454763811048,0.027946900554842488
1.0608486789431544,0.026544532715541736
1.0648518815052042,0.025112461026981794
1.0688550840672537,0.0236522880052826
1.0728582866293033,0.02216564761250292
1.076861489191353,0.020654203428205467
1.0808646917534026,0.01911964678787914
1.0848678943154524,0.017563694890301015
1.088871096877502,0.015988088875958442
1.0928742994395515,0.014394591878677846
1.0968775020016013,0.012784987052644185
1.1008807045636508,0.011161075577016876
1.1048839071257004,0.00952467464037462
1.1088871096877502,0.007877615407246567
1.1128903122497997,0.006221740969003293
1.1168935148118495,0.004558904281401368
1.120896717373899,0.002890966091090393
1.1248999199359486,0.0012197928534005342
1.1289031224979984,-0.0004527453562567336
1.132906325060048,-0.0021247769350397094
1.1369095276220975,-0.0037944308470366905
1.1409127301841473,-0.005459838716991427
1.1449159327461969,-0.007119136921051265
1.1489191353082466,-0.008770468672198798
1.1529223378702962,-0.01041198609803256
1.1569255404323457,-0.012041852308572474
1.1609287429943955,-0.013658243451775385
1.164931945556445,-0.015259350754460835
1.1689351481184946,-0.016843382546363674
1.1729383506805444,-0.018408566265048235
1.176941553242594,-0.019953150439439668
1.1809447558046435,-0.021475406649754742
1.1849479583666933,-0.02297363146163713
1.1889511609287429,-0.024446148332333047
1.1929543634907926,-0.0258913094867763
1.1969575660528422,-0.027307497761479754
1.2009607686148918,-0.028693128414173402
1.2049639711769415,-0.030046650897161645
1.208967173738991,-0.03136655059241591
1.2129703763010407,-0.03265135050646258
1.2169735788630904,-0.03389961292316697
1.22097678142514,-0.03510994101256553
1.2249799839871898,-0.036280980393946366
1.2289831865492393,-0.037411420651426844
1.2329863891112889,-0.03849999680033531
1.2369895916733387,-0.03954549070275315
1.2409927942353882,-0.04054673243063481
1.2449959967974378,-0.041502601574980175
1.2489991993594876,-0.04241202849959422
1.2530024019215371,-0.043273995538030435
1.257005604483587,-0.044087538132379735
1.2610088070456364,-0.044851745912629255
1.265012009607686,-0.04556576371538429
1.2690152121697358,-0.04622879254081288
1.2730184147317853,-0.046840090446741915
1.277021617293835,-0.04739897337890517
1.2810248198558847,-0.04790481593641324
1.2850280224179342,-0.04835705207158916
1.2890312249799838,-0.048755175723387084
1.2930344275420336,-0.049098741383684294
1.2970376301040831,-0.04938736459581339
1.301040832666133,-0.04962072238477699
1.3050440352281825,-0.04979855361866282
1.309047237790232,-0.04992065930085564
1.3130504403522818,-0.04998690279271815
1.3170536429143314,-0.049997209966492366
1.321056845476381,-0.049951569288250036
1.3250600480384307,-0.049850031830799287
1.3290632506004803,-0.04969271121653322
1.33306645316253,-0.04947978349028417
1.3370696557245796,-0.04921148692232615
1.3410728582866291,-0.04888812174174574
1.345076060848679,-0.04851004980047993
1.3490792634107285,-0.048077694168396766
1.353082465972778,-0.04759153865987184
1.3570856685348278,-0.04705212729239061
1.3610888710968774,-0.04646006367778235
1.3650920736589272,-0.04581601034676658
1.3690952762209767,-0.045120688007568445
1.3730984787830263,-0.044374874739431996
1.377101681345076,-0.04357940512193441
1.3811048839071256,-0.04273516930107546
1.3851080864691752,-0.041843111993186306
1.389111289031225,-0.04090423142777383
1.3931144915932745,-0.03991957823048243
1.3971176941553243,-0.0388902542474231
1.4011208967173738,-0.03781741131218677
1.4051240992794234,-0.03670224995691938
1.4091273018414732,-0.035546018068903396
1.4131305044035227,-0.03435000949414777
1.4171337069655723,-0.033115562589548606
1.421136909527622,-0.03184405872524216
1.4251401120896716,-0.03053692073882456
1.4291433146517212,-0.029195611343168698
1.433146517213771,-0.027821631489620115
1.4371497197758205,-0.02641651868840338
1.4411529223378703,-0.024981845288117983
1.4451561248999198,-0.023519216716249763
1.4491593274619694,-0.02203026968266602
1.4531625300240192,-0.020516670348105476
1.4571657325860687,-0.018980112459712078
1.4611689351481183,-0.017422315455698806
1.465172137710168,-0.01584502254126257
1.4691753402722176,-0.01424999873790418
1.4731785428342674,-0.012639028908334272
1.477181745396317,-0.011013915759177727
1.4811849479583665,-0.009376477823709588
1.4851881505204163,-0.007728547426880639
1.4891913530824659,-0.006071968634910694
1.4931945556445154,-0.004408595191741956
1.4971977582065652,-0.00274028844466361
1.5012009607686148,-0.0010689152614285539
1.5052041633306645,0.0006036540588091299
1.509207365892714,0.0022755478783943067
1.5132105684547636,0.0039448953155705
1.5172137710168134,0.005609828338032845
1.521216973578863,0.007268483853292013
1.5252201761409125,0.008919005793512071
1.5292233787029623,0.010559547192485925
1.5332265812650119,0.012188272252426316
1.5372297838270614,0.013803358398259922
1.5412329863891112,0.015402998317123768
1.5452361889511608,0.016985401980783785
1.5492393915132106,0.018548798648711538
1.55324259407526,0.02009143884957686
1.5572457966373097,0.021611596338940622
1.5612489991993594,0.023107570030956114
1.565252201761409,0.02457768590191671
1.5692554043234586,0.026020298863521536
1.5732586068855083,0.027433794603761198
1.577261809447558,0.028816591393363816
1.5812650120096077,0.030167141855781898
1.5852682145716572,0.031483934698735935
1.5892714171337068,0.032765496405380484
1.5932746196957566,0.03401039288319809
1.5972778222578061,0.03521723106877628
1.6012810248198557,1.2363846604866735
1.6052842273819055,-0.46248862523937323
1.609287429943955,0.8385961130754125
1.6132906325060048,0.03963766158772318
1.6172938350680544,0.040634854784481644
1.621297037630104,0.041586576787073073
1.6253002401921537,0.04249176260003482
1.6293034427542032,0.043349399302806936
1.6333066453162528,0.044158527183210304
1.6373098478783026,0.04491824081138299
1.6413130504403521,0.04562769005297399
1.645316253002402,0.04628608102046031
1.6493194555644515,0.046892676961522245
1.653322658126501,0.04744679908348387
1.6573258606885508,0.04794782731289508
1.6613290632506004,0.04839520098940592
1.66533226581265,0.0487884194931565
1.6693354683746997,0.049127042804980314
1.6733386709367493,0.04941069199879422
1.6773418734987988,0.049639049665624185
1.6813450760608486,0.04981186026879211
1.6853482786228982,0.04992893042986626
1.689351481184948,0.04999012914505559
1.6933546837469975,0.049995387931805496
1.697357886309047,0.04994470090543118
1.7013610888710968,0.04983812478570263
1.7053642914331464,0.04967577883337421
1.709367493995196,0.04945784471672945
1.7133706965572457,0.049184566308290704
1.7173738991192953,0.0488562494119212
1.721377101681345,0.0484732614206243
1.7253803042433946,0.04803603090542383
1.7293835068054442,0.04754504713578453
1.733386709367494,0.04700085953211018
1.7373899119295435,0.04640407705093139
1.741393114491593,0.04575536750347131
1.7453963170536428,0.04505545680835191
1.7493995196156924,0.04430512817927696
1.7534027221777422,0.043505221248600595
1.7574059247397917,0.042656631127762364
1.7614091273018413,0.04176030740563998
1.765412329863891,0.04081725308594097
1.7694155324259406,0.03982852346482203
1.7734187349879902,0.03879522494999207
1.77742193755004,0.037718513822620155
1.7814251401120895,0.03659959494343482
1.7854283426741393,0.03543972040446095
1.7894315452361889,0.03424018812790481
1.7934347477982384,0.03300234041375367
1.7974379503602882,0.031727562437715726
1.8014411529223378,0.030417280701182006
1.8054443554843873,0.029072961434943003
1.809447558046437,0.02769610895844803
1.8134507606084866,0.026288263996442907
1.8174539631705362,0.024851001954868137
1.821457165732586,0.023385931157949427
1.8254603682946355,0.021894691048451733
1.8294635708566853,0.020378950353110235
1.8334667734187349,0.01884040521529356
1.8374699759807844,0.01728077729698526
1.8414731785428342,0.01570181185221109
1.8454763811048838,0.014105275774065904
1.8494795836669333,0.012492955617525281
1.853482786228983,0.010866655600256285
1.8574859887910327,0.009228195583662507
1.8614891913530824,0.007579409036423424
1.865492393915132,0.005922140982807833
1.8694955964771816,0.0042582459380550615
1.8734987990392313,0.0025895858331368934
1.877502001601281,0.0009180279312202693
1.8815052041633304,-0.0007545572618367482
1.8855084067253802,-0.0024262980906173855
1.8895116092874298,-0.004095323844564413
1.8935148118494796,-0.005759766851342854
1.8975180144115291,-0.007417764566800659
1.9015212169735787,-0.009067461659192593
1.9055244195356285,-0.010707012085332444
1.909527622097678,-0.012334581156350681
1.9135308246597276,-0.013948347590748115
1.9175340272217773,-0.015546505552444745
1.921537229783827,-0.017127266671545367
1.9255404323458765,-0.018688862045560816
1.9295436349079262,-0.020229544218844157
1.9335468374699758,-0.021747589138027025
1.9375500400320256,-0.023241298081270068
1.9415532425940751,-0.02470899955916448
1.9455564451561247,-0.026149051185162378
1.9495596477181745,-0.02755984151343864
1.953562850280224,-0.028939791842130386
1.9575660528422736,-0.030287357979935266
1.9615692554043234,-0.031601031974091004
1.965572457966373,-0.0328793437978048
1.9695756605284227,-0.03412086299524151
1.9735788630904723,-0.035324200282231204
1.9775820656525218,-0.03648800910090602
1.9815852682145716,-0.03761098712652422
1.9855884707766212,-0.038691877724796625
1.9895916733386707,-0.039729471358085584
1.9935948759007205,-0.04072260693890078
1.99759807846277,-0.041670173129178416
